Temperature (K),g-r,r-i,g-i
2000,2.792538872805366,1.6946511284691574,4.487190001274524
2100,2.6438429668451686,1.5977616310054614,4.24160459785063
2200,2.507328426642868,1.5091119377499496,4.0164403643928175
2300,2.381483377121297,1.4276916125402668,3.809174989661564
2400,2.2650478037262527,1.3526518658104543,3.617699669536707
2500,2.156961902245204,1.283274074933841,3.4402359771790447
2600,2.0563267451120666,1.218945452734303,3.2752721978463697
2700,1.9623739759530512,1.159140021002301,3.1215139969553523
2800,1.874442202340763,1.1034035752643492,2.977845777605112
2900,1.7919584152029842,1.0513416898547039,2.843300105057688
3000,1.714423221667448,1.0026100651420968,2.717033286809545
3100,1.64139900098197,0.9569066976692282,2.598305698651198
3200,1.5725003231492813,0.9139654824020216,2.486465805551303
3300,1.507386135524733,0.8735509497302623,2.3809370852549954
3400,1.4457533430930418,0.835453908689443,2.281207251782485
3500,1.3873314966336094,0.7994878191517722,2.1868193157853817
3600,1.3318783686045688,0.7654857543425617,2.0973641229471305
3700,1.2791762456791398,0.7332978443914833,2.012474090070623
3800,1.2290288039345185,0.7027891141471394,1.931817918081658
3900,1.181258460911205,0.673837645903145,1.8550961068143499
4000,1.135704120417378,0.6463330112635002,1.782037131680878
4100,1.092219242704461,0.6201749270364547,1.7123941697409157
4200,1.0506701856955938,0.5952720984719124,1.6459422841675062
4300,1.0109347731970284,0.5715412198576457,1.5824759930546741
4400,0.9729010541232301,0.5489061078480244,1.5218071619712545
4500,0.9364662232118377,0.5272969472075419,1.4637631704193796
4600,0.9015356788654603,0.5066496321332079,1.4081853109986682
4700,0.8680221979143505,0.48690518914702885,1.3549273870613794
4800,0.8358452104616605,0.4680092698556164,1.303854480317277
4900,0.8049301607160748,0.44991170376281664,1.2548418644788915
5000,0.775207941962345,0.4325661028746479,1.207774044836993
5100,0.7466143956679594,0.4159295111185304,1.1625439067864898
5200,0.7190898662512901,0.399962092661831,1.1190519589131211
5300,0.692578804304401,0.3846268540989537,1.0772056584033547
5400,0.6670294121205926,0.3698893962142824,1.036918808334875
5500,0.6423933262612938,0.3557176916463938,0.9981110179076875
5600,0.618625332640053,0.3420818852983738,0.9607072179384268
5700,0.5956831102278559,0.32895411477691416,0.9246372250047701
5800,0.5735270000140278,0.31630834851307466,0.8898353485271024
5900,0.5521197963067732,0.30412023953165734,0.8562400358384306
6000,0.531426557840373,0.292366993103224,0.823793550943597
6100,0.5114144364830548,0.2810272467407251,0.79244168322378
6200,0.4920525216195242,0.27008096119768044,0.7621334828172046
6300,0.4733116985226027,0.2595093212921258,0.7328210198147285
6400,0.4551645192353455,0.24929464552448266,0.7044591647598282
6500,0.43758508466369017,0.23942030358158162,0.6770053882452718
6600,0.42054893673419835,0.22987064092646148,0.6504195776606598
6700,0.4040329596054859,0.22063090976660016,0.6246638693720861
6800,0.38801528903845295,0.21168720577408884,0.5997024948125418
6900,0.37247522913187514,0.20302641000175292,0.5755016391336281
7000,0.3573931757185318,0.19463613550073133,0.5520293112192631
7100,0.3427505457945499,0.18650467819885153,0.5292552239934014
7200,0.32852971242257056,0.17862097164640156,0.5071506840689721
7300,0.3147139446090428,0.1709745452773963,0.4856884898864391
7400,0.3012873517084549,0.16355548587101243,0.4648428375794673
7500,0.28823483195362254,0.15635440193016137,0.4445892338837839
7600,0.2755420247520708,0.14936239072271595,0.42490441547478675
7700,0.263195266424739,0.14257100775620268,0.4057662741809417
7800,0.2511815490953364,0.13597223847927276,0.38715378757460917
7900,0.2394884824671717,0.12955847202319604,0.36904695449036773
8000,0.22810425824964686,0.1233224768144836,0.35142673506413047
8100,0.21701761701918187,0.11725737790559698,0.33427499492477886
8200,0.20621781731951505,0.11135663588493261,0.31757445320444766
8300,0.19569460682433715,0.10561402723999047,0.3013086340643276
8400,0.18543819540135875,0.10002362605905091,0.28546182146040966
8500,0.17543922993138583,0.0945797869669237,0.27001901689830954
8600,0.1656887707489686,0.08927712919957564,0.25496589994854424
8700,0.1561782695828715,0.08411052173073486,0.24028879131360636
8800,0.1468995488851499,0.07907506937106545,0.22597461825621534
8900,0.1378447824470953,0.07416609976729344,0.21201088221438874
9000,0.129006477208909,0.06937915123475674,0.19838562844366575
9100,0.12037745617767814,0.0647099613624319,0.18508741754011004
9200,0.11195084237529823,0.060154456334489737,0.17210529870978797
9300,0.10372004374431043,0.05570874091701222,0.15942878466132265
9400,0.09567873894541629,0.051369089062648976,0.14704782800806526
9500,0.08782086398569988,0.047131935089753496,0.13495279907545338
9600,0.08014059962133291,0.042993865395996644,0.12313446501732955
9700,0.0726323594829355,0.03895161066957192,0.11158397015250743
9800,0.06529077887569651,0.03500203856397305,0.10029281743966956
9900,0.05811070421002279,0.03114214680493957,0.08925285101496236
10000,0.05108718302176629,0.027369056700554756,0.07845623972232105
10100,0.04421545454415038,0.02368000702766221,0.06789546157181259
10200,0.03749094079626175,0.020072348269783075,0.057563289066044826
10300,0.030909238155543445,0.016543537183533907,0.04745277533907735
10400,0.0244661093840694,0.013091131672257755,0.037557241056327156
10500,0.018157476080501653,0.00971278594710033,0.027870262027601983
10600,0.011979411531653425,0.006406245957212599,0.018385657488866024
10700,0.005928133939349725,0.0031693450720574855,0.00909747901140721
10800,0.0,0.0,0.0
10900,-0.005808501184183787,-0.0031037930715079945,-0.008912294255691781
11000,-0.011500753881958883,-0.006143962127843065,-0.01764471600980195
11100,-0.017080021216121594,-0.009122362783941837,-0.02620238400006343
11200,-0.022549450369974633,-0.01204078155772223,-0.03459023192769686
11300,-0.02791207753316252,-0.014900938971237107,-0.04281301650439963
11400,-0.033170832601791655,-0.01770449248987209,-0.050875325091663745
11500,-0.03832854364680616,-0.020453039309204724,-0.05878158295601088
11600,-0.04338794116366962,-0.023148118998498057,-0.06653606016216768
11700,-0.048351662115586225,-0.02579121600922163,-0.07414287812480785
11800,-0.05322225378172235,-0.02838376205642762,-0.08160601583814997
11900,-0.058002177421158374,-0.030927138380318436,-0.08892931580147681
12000,-0.0626938117626567,-0.033422677894856645,-0.09611648965751335
12100,-0.06729945632967804,-0.03587166722983276,-0.1031711235595108
12200,-0.0718213346095396,-0.038275348672401066,-0.11009668328194067
12300,-0.07626159707503177,-0.0406349220137156,-0.11689651908874737
12400,-0.0806223240663354,-0.042951546305939114,-0.12357387037227452
12500,-0.08490552854060157,-0.045226341534574444,-0.13013187007517601
12600,-0.08911315869612024,-0.04746039021076426,-0.1365735489068845
12700,-0.09324710047759566,-0.049654738887913885,-0.14290183936550954
12800,-0.09730917996867039,-0.05181039960673334,-0.14911957957540373
12900,-0.10130116567747571,-0.05392835127253892,-0.15522951695001463
13000,-0.10522477072065828,-0.05600954096843569,-0.16123431168909397
13100,-0.1090816549110174,-0.05805488520777019,-0.1671365401187876
13200,-0.11287342675360623,-0.06006527112905968,-0.17293869788266591
13300,-0.11660164535485185,-0.06204155763639896,-0.1786432029912508
13400,-0.12026782224902577,-0.06398457648817968,-0.18425239873720545
13500,-0.12387342314612759,-0.06589513333679253,-0.18976855648292013
13600,-0.12741986960503782,-0.06777400872182349,-0.1951938783268613
13700,-0.13090854063557233,-0.06962195901911283,-0.20053049965468517
13800,-0.13434077423288104,-0.07143971734791488,-0.20578049158079592
13900,-0.13771786884744264,-0.07322799443825867,-0.2109458632857013
14000,-0.14104108479372657,-0.07498747946051532,-0.21602856425424188
14100,-0.14431164560044396,-0.07671884081902458,-0.22103048641946854
14200,-0.14753073930513905,-0.07842272691157759,-0.22595346621671664
14300,-0.1506995196957278,-0.0800997668564205,-0.23079928655214832
14400,-0.15381910750147276,-0.08175057118835849,-0.23556967868983125
14500,-0.15689059153571638,-0.08337573252546848,-0.24026632406118487
14600,-0.15991502979261596,-0.08497582620782707,-0.24489085600044302
14700,-0.16289345049997805,-0.08655141090959528,-0.24944486140957334
14800,-0.16582685313019496,-0.08810302922572943,-0.2539298823559244
14900,-0.16871620937117626,-0.08963120823451964,-0.2583474176056959
15000,-0.17156246405908682,-0.09113646003708409,-0.2626989240961709
15100,-0.1743665360745914,-0.09261928227490734,-0.26698581834949875
15200,-0.17712931920423514,-0.09408015862643448,-0.2712094778306696
15300,-0.17985168296850595,-0.09551955928369193,-0.2753712422521979
15400,-0.18253447341804196,-0.09693794140984935,-0.2794724148278913
15500,-0.18517851389938045,-0.09833574957859637,-0.2835142634779768
15600,-0.18778460579157552,-0.09971341619615681,-0.28749802198773233
15700,-0.19035352921494442,-0.10107136190672283,-0.29142489112166725
15800,-0.1928860437131451,-0.10240999598205625,-0.29529603969520135
15900,-0.19538288890972577,-0.10372971669596265,-0.2991126056056884
16000,-0.1978447851402375,-0.10503091168430245,-0.30287569682453996
16100,-0.20027243406093986,-0.10631395829119106,-0.3065863923521309
16200,-0.2026665192350925,-0.10757922390197805,-0.31024574313707054
16300,-0.2050277066977707,-0.10882706626359462,-0.3138547729613653
16400,-0.20735664550009947,-0.11005783379280576,-0.3174144792929052
16500,-0.20965396823375915,-0.11127186587290461,-0.32092583410666375
16600,-0.2119202915365872,-0.1124694931393243,-0.3243897846759115
16700,-0.21415621658003436,-0.11365103775465935,-0.3278072543346937
16800,-0.21636232953923584,-0.11481681367353369,-0.33117914321276953
16900,-0.218539202046391,-0.11596712689774957,-0.33450632894414056
17000,-0.22068739162813378,-0.11710227572212184,-0.3377896673502556
17100,-0.22280744212753256,-0.11822255097139145,-0.341029993098924
17200,-0.22489988411134476,-0.11932823622858035,-0.3442281203399251
17300,-0.22696523526309842,-0.1204196080551534,-0.3473848433182518
17400,-0.2290040007625782,-0.12149693620330804,-0.35050093696588625
17500,-0.23101667365224365,-0.12256048382073048,-0.35357715747297414
17600,-0.2330037351910912,-0.12361050764811299,-0.3566142428392042
17700,-0.2349656551964574,-0.12464725820972844,-0.35961291340618584
17800,-0.23690289237422646,-0.1256709799973421,-0.3625738723715686
17900,-0.238815894637894,-0.12668191164772713,-0.3654978062856211
18000,-0.24070509941690954,-0.12768028611403892,-0.36838538553094846
18100,-0.24257093395472062,-0.12866633083129075,-0.3712372647860114
18200,-0.2444138155968978,-0.12964026787616256,-0.37405408347306035
18300,-0.24623415206972554,-0.13060231412136525,-0.3768364661910908
18400,-0.24803234174961553,-0.1315526813847796,-0.3795850231343951
18500,-0.2498087739236905,-0.13249157657355837,-0.38230035049724886
18600,-0.25156382904186314,-0.13341920182340017,-0.3849830308652633
18700,-0.2532978789607334,-0.1343357546331745,-0.3876336335939079
18800,-0.25501128717959975,-0.13524142799507555,-0.3902527151746753
18900,-0.25670440906888814,-0.13613641052047476,-0.3928408195893629
19000,-0.2583775920912583,-0.13702088656163802,-0.39539847865289635
19100,-0.2600311760156713,-0.1378950363294622,-0.3979262123451335
19200,-0.2616654931246707,-0.13875903600737294,-0.4004245291320436
19300,-0.26328086841511444,-0.1396130578615442,-0.40289392627665865
19400,-0.2648776197926026,-0.14045727034755684,-0.40533489014015944
19500,-0.2664560582598283,-0.14129183821363833,-0.40774789647346665
19600,-0.2680164880990592,-0.14211692260061137,-0.4101334106996706
19700,-0.2695592070489663,-0.14293268113866286,-0.41249188818762916
19800,-0.2710845064760028,-0.14373926804105608,-0.4148237745170589
19900,-0.27259267154051203,-0.14453683419489805,-0.4171295057354101
20000,-0.274083981357762,-0.14532552724906145,-0.41940950860682347
20100,-0.27555870915408187,-0.14610549169936715,-0.421664200853449
20200,-0.27701712241826626,-0.1468768689711295,-0.42389399138939576
20300,-0.27845948304840884,-0.1476397974991499,-0.42609928054755875
20400,-0.279886047494335,-0.14839441280525523,-0.4282804602995902
20500,-0.28129706689577283,-0.14914084757346435,-0.4304379144692372
20600,-0.282692787216412,-0.14987923172287054,-0.43257201893928254
20700,-0.2840734493739907,-0.15060969247831246,-0.43468314185230317
20800,-0.2854392893665485,-0.15133235443891468,-0.4367716438054632
20900,-0.28679053839496405,-0.15204733964457695,-0.438837878039541
21000,-0.28812742298191796,-0.15275476764046925,-0.4408821906223872
21100,-0.2894501650873844,-0.1534547555396153,-0.4429049206269997
21200,-0.2907589822207792,-0.15414741808362198,-0.4449064003044012
21300,-0.29205408754987006,-0.15483286770161553,-0.4468869552514856
21400,-0.293335690006556,-0.15551121456745554,-0.44884690457401155
21500,-0.29460399438961726,-0.15618256665527297,-0.45078656104489023
21600,-0.2958592014645409,-0.1568470297933966,-0.4527062312579375
21700,-0.29710150806051105,-0.1575047077167182,-0.45460621577722926
21800,-0.29833110716466194,-0.15815570211754748,-0.4564868092822094
21900,-0.2995481880136699,-0.15880011269501093,-0.4583483007086808
22000,-0.3007529361827941,-0.1594380372030375,-0.4601909733858316
22100,-0.30194553367241506,-0.16006957149698264,-0.4620151051693977
22200,-0.30312615899218365,-0.16069480957892868,-0.4638209685711123
22300,-0.3042949872428342,-0.1613138436417132,-0.4656088308845474
22400,-0.30545219019574077,-0.16192676411171902,-0.4673789543074598
22500,-0.30659793637029753,-0.16253365969046585,-0.4691315960607634
22600,-0.30773239110917716,-0.16313461739505364,-0.4708670085042308
22700,-0.30885571665154554,-0.1637297225974772,-0.47258543924902274
22800,-0.30996807220428946,-0.16431905906285516,-0.4742871312671446
22900,-0.31106961401131894,-0.1649027089866233,-0.47597232299794223
23000,-0.31216049542101265,-0.1654807530306912,-0.47764124845170386
23100,-0.3132408669518518,-0.16605327035862794,-0.47929413731047976
23200,-0.3143108763563014,-0.1666203386698888,-0.4809312150261902
23300,-0.31537066868300356,-0.16718203423311695,-0.4825527029161205
23400,-0.31642038633731273,-0.16773843191855375,-0.4841588182558665
23500,-0.3174601691402461,-0.1682896052295748,-0.4857497743698209
23600,-0.3184901543858809,-0.16883562633339122,-0.48732578071927213
23700,-0.31951047689725165,-0.16937656609093033,-0.488887042988182
23800,-0.3205212690807917,-0.16991249408593312,-0.4904337631667248
23900,-0.3215226609793651,-0.17044347865327292,-0.491966139632638
24000,-0.32251478032392367,-0.1709695869065473,-0.49348436723047095
24100,-0.3234977525838343,-0.17149088476493501,-0.4949886373487693
24200,-0.3244717010159257,-0.17200743697936094,-0.49647913799528665
24300,-0.32543674671226297,-0.17251930715798602,-0.497956053870249
24400,-0.32639300864672793,-0.17302655779102794,-0.49941956643775587
24500,-0.3273406037204061,-0.17352925027495703,-0.5008698539953631
24600,-0.3282796468058282,-0.17402744493606415,-0.5023070917418924
24700,-0.32921025079010424,-0.17452120105342916,-0.5037314518435334
24800,-0.33013252661697434,-0.17501057688130972,-0.5051431034982841
24900,-0.3310465833278071,-0.17549562967095578,-0.5065422129987629
25000,-0.33195252810158116,-0.17597641569188638,-0.5079289437934675
25100,-0.33285046629387915,-0.17645299025261751,-0.5093034565464967
25200,-0.3337405014749122,-0.17692540772088416,-0.5106659091957964
25300,-0.33462273546661514,-0.17739372154335364,-0.5120164570099688
25400,-0.33549726837883154,-0.17785798426484845,-0.51335525264368
25500,-0.336364198644612,-0.17831824754709658,-0.5146824461917086
25600,-0.3372236230546637,-0.1787745621870207,-0.5159981852416844
25700,-0.33807563679095276,-0.17922697813457455,-0.5173026149255273
25800,-0.33892033345950523,-0.1796755445101499,-0.5185958779696551
25900,-0.3397578051224155,-0.18012030962155445,-0.5198781147439699
26000,-0.3405881423290873,-0.1805613209805803,-0.5211494633096676
26100,-0.34141143414672914,-0.1809986253191751,-0.5224100594659042
26200,-0.34222776819012957,-0.18143226860521566,-0.5236600367953452
26300,-0.3430372306507139,-0.18186229605791548,-0.5248995267086294
26400,-0.3438399063249342,-0.18228875216285223,-0.5261286584877864
26500,-0.3446358786419692,-0.1827116806866469,-0.5273475593286161
26600,-0.3454252296907929,-0.18313112469129034,-0.5285563543820833
26700,-0.34620804024660057,-0.18354712654813432,-0.5297551667947349
26800,-0.34698438979662605,-0.18395972795154747,-0.5309441177481735
26900,-0.34775435656535136,-0.18436896993225926,-0.5321233264976106
27000,-0.34851801753914513,-0.18477489287038806,-0.5332929104095332
27100,-0.349275448490324,-0.18517753650816515,-0.5344529849984891
27200,-0.35002672400066603,-0.18557693996236546,-0.5356036639630315
27300,-0.35077191748438685,-0.1859731417364523,-0.5367450592208391
27400,-0.3515111012105916,-0.18636617973243785,-0.5378772809430294
27500,-0.35224434632521273,-0.18675609126247883,-0.5390004375876916
27600,-0.35297172287246226,-0.1871429130601998,-0.5401146359326621
27700,-0.35369329981578446,-0.18752668129176353,-0.541219981107548
27800,-0.35440914505835375,-0.18790743156668976,-0.5423165766250435
27900,-0.35511932546310043,-0.188285198948428,-0.5434045244115284
28000,-0.3558239068722995,-0.18866001796469,-0.5444839248369895
28100,-0.3565229541267152,-0.1890319226175583,-0.5455548767442735
28200,-0.35721653108433027,-0.1894009463933557,-0.546617477477686
28300,-0.35790470063865065,-0.18976712227231185,-0.5476718229109625
28400,-0.35858752473661637,-0.1901304827379977,-0.5487180074746141
28500,-0.3592650643961164,-0.1904910597865621,-0.5497561241826785
28600,-0.3599373797231169,-0.19084888493576369,-0.5507862646588806
28700,-0.3606045299284224,-0.1912039892337989,-0.5518085191622213
28800,-0.3612665733440694,-0.19155640326794265,-0.5528229766120121
28900,-0.3619235674393617,-0.1919061571729963,-0.553829724612358
29000,-0.36257556883656905,-0.19225328063955516,-0.5548288494761242
29100,-0.363222633326278,-0.19259780292209405,-0.5558204362483721
29200,-0.36386481588242203,-0.19293975284687614,-0.5568045687292982
29300,-0.36450217067698265,-0.19327915881970226,-0.5577813294966849
29400,-0.3651347510943852,-0.1936160488334795,-0.5587507999278647
29500,-0.3657626097455835,-0.19395045047563753,-0.559713060221221
29600,-0.3663857984818488,-0.19428239093538213,-0.560668189417231
29700,-0.3670043684082702,-0.19461189701080084,-0.5616162654190711
29800,-0.36761836989696484,-0.1949389951158096,-0.5625573650127744
29900,-0.3682278526000178,-0.19526371128696063,-0.5634915638869784
30000,-0.36883286546215155,-0.19558607119010007,-0.5644189366522516
30100,-0.36943345673312367,-0.19590610012689558,-0.5653395568600192
30200,-0.3700296739798796,-0.19622382304121544,-0.5662534970210951
30300,-0.3706215640984456,-0.19653926452538428,-0.5671608286238299
30400,-0.37120917332557557,-0.19685244882630948,-0.568061622151885
30500,-0.37179254725016664,-0.1971633998514708,-0.5689559471016374
30600,-0.3723717308244341,-0.19747214117479706,-0.5698438719992311
30700,-0.37294676837485685,-0.1977786960424195,-0.5707254644172763
30800,-0.37351770361291026,-0.19808308737830238,-0.5716007909912126
30900,-0.37408457964556874,-0.19838533778976286,-0.5724699174353316
31000,-0.37464743898560293,-0.19868546957288324,-0.5733329085584862
31100,-0.3752063235616685,-0.19898350471780057,-0.5741898282794691
31200,-0.3757612747281911,-0.19927946491390158,-0.5750407396420927
31300,-0.3763123332750542,-0.19957337155490884,-0.575885704829963
31400,-0.37685953943709194,-0.19986524574386078,-0.5767247851809527
31500,-0.3774029329033963,-0.20015510829799865,-0.577558041201395
31600,-0.3779425528264335,-0.20044297975355074,-0.5783855325799843
31700,-0.378478437830986,-0.20072888037042524,-0.5792073182014112
31800,-0.3790106260229176,-0.20101283013680638,-0.580023456159724
31900,-0.37953915499775936,-0.20129484877366233,-0.5808340037714217
32000,-0.38006406184913777,-0.20157495573916573,-0.5816390175883035
